pressure[atm]        = 1
temperature[K]       = 300
energy step[1/cm]    = 20.8512
maximum energy[1/cm] = 11905

Bimolecular-to-bimolecular product energy distributions:
  E, kcal/mol    RH->NC3H7    RH->IC3H7
      34.0377  1.04099e-09  5.21334e-11
      33.9781  1.11749e-09  5.60546e-11
      33.9184  1.19955e-09  6.02685e-11
      33.8588  1.28759e-09  6.47969e-11
      33.7992  1.38203e-09   6.9663e-11
      33.7396  1.48333e-09  7.48919e-11
        33.68    1.592e-09  8.05104e-11
      33.6204  1.70856e-09  8.65472e-11
      33.5607  1.83357e-09  9.30334e-11
      33.5011  1.96765e-09  1.00002e-10
      33.4415  2.11144e-09  1.07489e-10
      33.3819  2.26565e-09  1.15531e-10
      33.3223  2.43102e-09  1.24172e-10
      33.2627  2.60834e-09  1.33453e-10
       33.203  2.79848e-09  1.43423e-10
      33.1434  3.00235e-09  1.54132e-10
      33.0838  3.22094e-09  1.65634e-10
      33.0242  3.45529e-09  1.77989e-10
      32.9646  3.70653e-09  1.91257e-10
       32.905  3.97587e-09  2.05507e-10
      32.8454  4.26459e-09   2.2081e-10
      32.7857  4.57408e-09  2.37244e-10
      32.7261  4.90581e-09  2.54892e-10
      32.6665  5.26137e-09  2.73841e-10
      32.6069  5.64245e-09  2.94188e-10
      32.5473  6.05086e-09  3.16035e-10
      32.4877  6.48855e-09  3.39492e-10
       32.428  6.95759e-09  3.64675e-10
      32.3684  7.46019e-09  3.91711e-10
      32.3088  7.99874e-09  4.20735e-10
      32.2492  8.57579e-09  4.51892e-10
      32.1896  9.19404e-09  4.85338e-10
        32.13  9.85642e-09  5.21238e-10
      32.0703   1.0566e-08  5.59772e-10
      32.0107  1.13262e-08  6.01131e-10
      31.9511  1.21405e-08  6.45521e-10
      31.8915  1.30128e-08   6.9316e-10
      31.8319  1.39471e-08  7.44286e-10
      31.7723  1.49477e-08  7.99151e-10
      31.7127  1.60195e-08  8.58025e-10
       31.653  1.71672e-08    9.212e-10
      31.5934  1.83963e-08  9.88987e-10
      31.5338  1.97125e-08  1.06172e-09
      31.4742  2.11218e-08  1.13975e-09
      31.4146  2.26308e-08  1.22347e-09
       31.355  2.42465e-08  1.31329e-09
      31.2953  2.59763e-08  1.40964e-09
      31.2357  2.78281e-08  1.51299e-09
      31.1761  2.98105e-08  1.62386e-09
      31.1165  3.19326e-08  1.74278e-09
      31.0569  3.42041e-08  1.87033e-09
      30.9973  3.66353e-08  2.00713e-09
      30.9376  3.92375e-08  2.15385e-09
       30.878  4.20224e-08  2.31119e-09
      30.8184  4.50027e-08  2.47992e-09
      30.7588   4.8192e-08  2.66086e-09
      30.6992  5.16047e-08  2.85488e-09
      30.6396  5.52564e-08  3.06292e-09
        30.58  5.91634e-08  3.28597e-09
      30.5203  6.33436e-08  3.52512e-09
      30.4607  6.78156e-08  3.78151e-09
      30.4011  7.25996e-08  4.05637e-09
      30.3415  7.77172e-08  4.35102e-09
      30.2819  8.31912e-08  4.66686e-09
      30.2223  8.90462e-08  5.00542e-09
      30.1626  9.53084e-08   5.3683e-09
       30.103  1.02006e-07  5.75724e-09
      30.0434  1.09168e-07  6.17408e-09
      29.9838  1.16827e-07   6.6208e-09
      29.9242  1.25016e-07  7.09953e-09
      29.8646  1.33773e-07  7.61254e-09
      29.8049  1.43135e-07  8.16225e-09
      29.7453  1.53145e-07  8.75126e-09
      29.6857  1.63846e-07  9.38235e-09
      29.6261  1.75285e-07  1.00585e-08
      29.5665  1.87512e-07  1.07829e-08
      29.5069  2.00582e-07  1.15589e-08
      29.4473  2.14551e-07  1.23902e-08
      29.3876   2.2948e-07  1.32806e-08
       29.328  2.45435e-07  1.42344e-08
      29.2684  2.62484e-07   1.5256e-08
      29.2088  2.80702e-07  1.63502e-08
      29.1492  3.00168e-07   1.7522e-08
      29.0896  3.20966e-07  1.87769e-08
      29.0299  3.43186e-07  2.01207e-08
      28.9703  3.66924e-07  2.15597e-08
      28.9107  3.92281e-07  2.31005e-08
      28.8511  4.19367e-07  2.47502e-08
      28.7915  4.48297e-07  2.65165e-08
      28.7319  4.79196e-07  2.84075e-08
      28.6722  5.12195e-07  3.04318e-08
      28.6126  5.47435e-07  3.25988e-08
       28.553  5.85066e-07  3.49184e-08
      28.4934  6.25246e-07  3.74013e-08
      28.4338  6.68148e-07  4.00587e-08
      28.3742  7.13951e-07  4.29028e-08
      28.3146  7.62849e-07  4.59466e-08
      28.2549  8.15047e-07  4.92039e-08
      28.1953  8.70766e-07  5.26895e-08
      28.1357  9.30238e-07  5.64192e-08
      28.0761  9.93712e-07  6.04099e-08
      28.0165  1.06145e-06  6.46795e-08
      27.9569  1.13374e-06  6.92475e-08
      27.8972  1.21088e-06  7.41342e-08
      27.8376  1.29319e-06  7.93618e-08
       27.778  1.38101e-06  8.49537e-08
      27.7184  1.47471e-06  9.09349e-08
      27.6588  1.57466e-06  9.73321e-08
      27.5992  1.68128e-06  1.04174e-07
      27.5396  1.79501e-06  1.11491e-07
      27.4799  1.91631e-06  1.19316e-07
      27.4203  2.04568e-06  1.27683e-07
      27.3607  2.18364e-06   1.3663e-07
      27.3011  2.33076e-06  1.46196e-07
      27.2415  2.48764e-06  1.56423e-07
      27.1819   2.6549e-06  1.67357e-07
      27.1222  2.83322e-06  1.79046e-07
      27.0626  3.02333e-06  1.91541e-07
       27.003  3.22598e-06  2.04896e-07
      26.9434  3.44199e-06  2.19171e-07
      26.8838  3.67222e-06  2.34428e-07
      26.8242  3.91759e-06  2.50733e-07
      26.7645  4.17908e-06  2.68157e-07
      26.7049  4.45772e-06  2.86776e-07
      26.6453  4.75463e-06  3.06672e-07
      26.5857  5.07097e-06  3.27929e-07
      26.5261  5.40798e-06   3.5064e-07
      26.4665  5.76701e-06  3.74903e-07
      26.4069  6.14945e-06  4.00822e-07
      26.3472   6.5568e-06  4.28509e-07
      26.2876  6.99065e-06  4.58083e-07
       26.228  7.45269e-06  4.89669e-07
      26.1684  7.94471e-06  5.23404e-07
      26.1088  8.46862e-06   5.5943e-07
      26.0492  9.02645e-06  5.97901e-07
      25.9895  9.62034e-06  6.38981e-07
      25.9299  1.02526e-05  6.82844e-07
      25.8703  1.09256e-05  7.29675e-07
      25.8107  1.16419e-05  7.79671e-07
      25.7511  1.24043e-05  8.33045e-07
      25.6915  1.32157e-05  8.90019e-07
      25.6318  1.40791e-05  9.50833e-07
      25.5722  1.49979e-05  1.01574e-06
      25.5126  1.59754e-05  1.08502e-06
       25.453  1.70154e-05  1.15894e-06
      25.3934  1.81217e-05  1.23783e-06
      25.3338  1.92985e-05  1.32202e-06
      25.2742  2.05502e-05  1.41183e-06
      25.2145  2.18814e-05  1.50766e-06
      25.1549   2.3297e-05  1.60989e-06
      25.0953  2.48024e-05  1.71895e-06
      25.0357   2.6403e-05  1.83529e-06
      24.9761  2.81047e-05  1.95937e-06
      24.9165  2.99138e-05  2.09171e-06
      24.8568  3.18368e-05  2.23284e-06
      24.7972  3.38808e-05  2.38335e-06
      24.7376  3.60532e-05  2.54384e-06
       24.678  3.83619e-05  2.71497e-06
      24.6184  4.08151e-05  2.89742e-06
      24.5588  4.34217e-05  3.09193e-06
      24.4991  4.61911e-05  3.29928e-06
      24.4395  4.91331e-05  3.52031e-06
      24.3799  5.22582e-05   3.7559e-06
      24.3203  5.55776e-05  4.00699e-06
      24.2607  5.91029e-05  4.27458e-06
      24.2011  6.28466e-05  4.55974e-06
      24.1415   6.6822e-05   4.8636e-06
      24.0818  7.10428e-05  5.18735e-06
      24.0222  7.55238e-05  5.53229e-06
      23.9626  8.02808e-05  5.89976e-06
       23.903    8.533e-05  6.29121e-06
      23.8434  9.06891e-05  6.70817e-06
      23.7838  9.63764e-05  7.15228e-06
      23.7241  0.000102412  7.62526e-06
      23.6645  0.000108815  8.12895e-06
      23.6049  0.000115609  8.66531e-06
      23.5453  0.000122816   9.2364e-06
      23.4857  0.000130461  9.84444e-06
      23.4261   0.00013857  1.04918e-05
      23.3664  0.000147169  1.11809e-05
      23.3068  0.000156288  1.19143e-05
      23.2472  0.000165956   1.2695e-05
      23.1876  0.000176207  1.35259e-05
       23.128  0.000187074  1.44101e-05
      23.0684  0.000198593   1.5351e-05
      23.0088  0.000210801  1.63521e-05
      22.9491  0.000223739  1.74172e-05
      22.8895  0.000237449  1.85503e-05
      22.8299  0.000251975  1.97557e-05
      22.7703  0.000267364  2.10378e-05
      22.7107  0.000283666  2.24014e-05
      22.6511  0.000300932  2.38516e-05
      22.5914  0.000319219  2.53937e-05
      22.5318  0.000338584  2.70335e-05
      22.4722  0.000359089  2.87769e-05
      22.4126  0.000380798  3.06304e-05
       22.353  0.000403779  3.26007e-05
      22.2934  0.000428105  3.46951e-05
      22.2337   0.00045385  3.69211e-05
      22.1741  0.000481095  3.92868e-05
      22.1145  0.000509923  4.18008e-05
      22.0549  0.000540423  4.44721e-05
      21.9953  0.000572689  4.73103e-05
      21.9357  0.000606818  5.03256e-05
      21.8761  0.000642914  5.35287e-05
      21.8164  0.000681086   5.6931e-05
      21.7568  0.000721447  6.05445e-05
      21.6972  0.000764119  6.43821e-05
      21.6376  0.000809229  6.84573e-05
       21.578  0.000856908  7.27844e-05
      21.5184  0.000907299  7.73784e-05
      21.4587  0.000960547  8.22555e-05
      21.3991   0.00101681  8.74325e-05
      21.3395   0.00107625  9.29274e-05
      21.2799   0.00113903  9.87592e-05
      21.2203   0.00120535  0.000104948
      21.1607   0.00127538  0.000111515
       21.101   0.00134932  0.000118482
      21.0414   0.00142739  0.000125874
      20.9818    0.0015098  0.000133714
      20.9222   0.00159678  0.000142031
      20.8626   0.00168858  0.000150852
       20.803   0.00178545  0.000160205
      20.7434   0.00188764  0.000170124
      20.6837   0.00199545   0.00018064
      20.6241   0.00210917  0.000191788
      20.5645   0.00222909  0.000203606
      20.5049   0.00235555  0.000216132
      20.4453   0.00248887  0.000229407
      20.3857   0.00262941  0.000243475
       20.326   0.00277755  0.000258381
      20.2664   0.00293366  0.000274174
      20.2068   0.00309816  0.000290904
      20.1472   0.00327146  0.000308625
      20.0876   0.00345401  0.000327394
       20.028   0.00364628  0.000347271
      19.9683   0.00384876  0.000368318
      19.9087   0.00406194  0.000390603
      19.8491   0.00428637  0.000414194
      19.7895   0.00452259  0.000439167
      19.7299    0.0047712  0.000465599
      19.6703   0.00503279  0.000493572
      19.6107     0.005308  0.000523172
       19.551    0.0055975  0.000554491
      19.4914   0.00590197  0.000587624
      19.4318   0.00622214  0.000622672
      19.3722   0.00655875  0.000659742
      19.3126    0.0069126  0.000698946
       19.253    0.0072845  0.000740401
      19.1933   0.00767531  0.000784231
      19.1337   0.00808591  0.000830567
      19.0741   0.00851724  0.000879546
      19.0145   0.00897026  0.000931312
      18.9549   0.00944598  0.000986018
      18.8953   0.00994543   0.00104382
      18.8356    0.0104697   0.00110489
       18.776      0.01102   0.00116941
      18.7164    0.0115974   0.00123755
      18.6568    0.0122031   0.00130951
      18.5972    0.0128386    0.0013855
      18.5376    0.0135049   0.00146574
       18.478    0.0142037   0.00155044
      18.4183    0.0149361   0.00163984
      18.3587    0.0157039    0.0017342
      18.2991    0.0165084   0.00183378
      18.2395    0.0173513   0.00193884
      18.1799    0.0182342   0.00204967
      18.1203    0.0191588   0.00216659
      18.0606    0.0201269   0.00228989
       18.001    0.0211404   0.00241992
      17.9414    0.0222011   0.00255701
      17.8818     0.023311   0.00270154
      17.8222    0.0244721   0.00285389
      17.7626    0.0256865   0.00301444
      17.7029    0.0269565   0.00318363
      17.6433    0.0282841   0.00336189
      17.5837    0.0296717   0.00354967
      17.5241    0.0311218   0.00374746
      17.4645    0.0326367   0.00395576
      17.4049     0.034219   0.00417509
      17.3453    0.0358712     0.004406
      17.2856    0.0375962   0.00464906
       17.226    0.0393965   0.00490487
      17.1664    0.0412751   0.00517407
      17.1068    0.0432348   0.00545729
      17.0472    0.0452787   0.00575523
      16.9876    0.0474098    0.0060686
      16.9279    0.0496312   0.00639815
      16.8683    0.0519462   0.00674464
      16.8087    0.0543581   0.00710889
      16.7491    0.0568702   0.00749175
      16.6895     0.059486    0.0078941
      16.6299     0.062209   0.00831685
      16.5702    0.0650428   0.00876097
      16.5106    0.0679911   0.00922744
       16.451    0.0710577   0.00971731
      16.3914    0.0742463    0.0102317
      16.3318    0.0775607    0.0107716
      16.2722    0.0810051    0.0113383
      16.2126    0.0845832    0.0119331
      16.1529    0.0882993     0.012557
      16.0933    0.0921574    0.0132116
      16.0337    0.0961617     0.013898
      15.9741     0.100316    0.0146179
      15.9145     0.104626    0.0153725
      15.8549     0.109094    0.0161635
      15.7952     0.113725    0.0169925
      15.7356     0.118524     0.017861
       15.676     0.123494    0.0187708
      15.6164     0.128641    0.0197236
      15.5568     0.133969    0.0207214
      15.4972     0.139481    0.0217659
      15.4376     0.145182    0.0228591
      15.3779     0.151077    0.0240031
      15.3183      0.15717       0.0252
      15.2587     0.163464    0.0264518
      15.1991     0.169964    0.0277609
      15.1395     0.176674    0.0291296
      15.0799     0.183599    0.0305602
      15.0202     0.190741    0.0320552
      14.9606     0.198104    0.0336172
       14.901     0.205692    0.0352487
      14.8414     0.213509    0.0369524
      14.7818     0.221558     0.038731
      14.7222     0.229841    0.0405876
      14.6625     0.238361    0.0425249
      14.6029     0.247122    0.0445459
      14.5433     0.256125    0.0466538
      14.4837     0.265372    0.0488517
      14.4241     0.274865    0.0511429
      14.3645     0.284606    0.0535307
      14.3049     0.294595    0.0560184
      14.2452     0.304833    0.0586096
      14.1856     0.315321    0.0613079
       14.126     0.326057    0.0641168
      14.0664     0.337042    0.0670401
      14.0068     0.348274    0.0700816
      13.9472     0.359751    0.0732452
      13.8875     0.371471    0.0765347
      13.8279     0.383431    0.0799542
      13.7683     0.395628    0.0835077
      13.7087     0.408057    0.0871994
      13.6491     0.420714    0.0910335
      13.5895     0.433592    0.0950141
      13.5298     0.446686    0.0991456
      13.4702     0.459988     0.103432
      13.4106      0.47349     0.107879
       13.351     0.487184     0.112489
      13.2914      0.50106     0.117268
      13.2318     0.515107     0.122219
      13.1722     0.529314     0.127348
      13.1125     0.543668     0.132659
      13.0529     0.558157     0.138155
      12.9933     0.572765     0.143843
      12.9337     0.587478     0.149726
      12.8741      0.60228     0.155808
      12.8145     0.617152     0.162094
      12.7548     0.632077     0.168588
      12.6952     0.647036     0.175294
      12.6356     0.662009     0.182217
       12.576     0.676974      0.18936
      12.5164     0.691909     0.196727
      12.4568     0.706793     0.204323
      12.3971       0.7216      0.21215
      12.3375     0.736306     0.220212
      12.2779     0.750887     0.228512
      12.2183     0.765315     0.237054
      12.1587     0.779565      0.24584
      12.0991     0.793609     0.254872
      12.0395      0.80742     0.264153
      11.9798     0.820969     0.273684
      11.9202     0.834228     0.283468
      11.8606     0.847169     0.293506
       11.801     0.859763     0.303797
      11.7414     0.871981     0.314344
      11.6818     0.883795     0.325145
      11.6221     0.895177       0.3362
      11.5625       0.9061     0.347508
      11.5029     0.916536     0.359068
      11.4433     0.926459     0.370876
      11.3837     0.935843     0.382932
      11.3241     0.944665     0.395231
      11.2644     0.952902     0.407768
      11.2048     0.960532      0.42054
      11.1452     0.967534      0.43354
      11.0856      0.97389     0.446763
       11.026     0.979584     0.460201
      10.9664     0.984601     0.473847
      10.9068     0.988929     0.487691
      10.8471     0.992557     0.501724
      10.7875     0.995477     0.515935
      10.7279     0.997683     0.530312
      10.6683     0.999172     0.544844
      10.6087     0.999944     0.559516
      10.5491            1     0.574313
      10.4894     0.999344     0.589222
      10.4298     0.997983     0.604223
      10.3702     0.995926     0.619301
      10.3106     0.993185     0.634436
       10.251     0.989771     0.649608
      10.1914     0.985702     0.664797
      10.1317     0.980994     0.679981
      10.0721     0.975666     0.695137
      10.0125     0.969739     0.710241
       9.9529     0.963234     0.725268
      9.89328     0.956175     0.740193
      9.83367     0.948584     0.754988
      9.77405     0.940487     0.769628
      9.71444     0.931909     0.784083
      9.65482     0.922874     0.798325
      9.59521     0.913408     0.812325
      9.53559     0.903536     0.826052
      9.47597     0.893283     0.839476
      9.41636     0.882674     0.852566
      9.35674     0.871733     0.865292
      9.29713     0.860485     0.877623
      9.23751     0.848952     0.889528
       9.1779     0.837157     0.900976
      9.11828     0.825122     0.911936
      9.05866     0.812867     0.922379
      8.99905     0.800414     0.932275
      8.93943     0.787782     0.941597
      8.87982      0.77499     0.950315
       8.8202     0.762056     0.958404
      8.76059     0.748997     0.965839
      8.70097      0.73583     0.972596
      8.64135     0.722571     0.978653
      8.58174     0.709235      0.98399
      8.52212     0.695837     0.988588
      8.46251     0.682391      0.99243
      8.40289      0.66891     0.995503
      8.34327     0.655408     0.997795
      8.28366     0.641896     0.999296
      8.22404     0.628387            1
      8.16443     0.614892     0.999902
      8.10481     0.601421        0.999
       8.0452     0.587986     0.997296
      7.98558     0.574596     0.994792
      7.92596     0.561261     0.991497
      7.86635      0.54799     0.987418
      7.80673     0.534792     0.982568
      7.74712     0.521676     0.976961
       7.6875      0.50865     0.970614
      7.62789     0.495722     0.963546
      7.56827     0.482899      0.95578
      7.50865     0.470188     0.947338
      7.44904     0.457597     0.938247
      7.38942     0.445132     0.928533
      7.32981     0.432799     0.918225
      7.27019     0.420605     0.907354
      7.21058     0.408555      0.89595
      7.15096     0.396655     0.884045
      7.09134     0.384911     0.871671
      7.03173     0.373326      0.85886
      6.97211     0.361906     0.845646
       6.9125     0.350655     0.832059
      6.85288     0.339577     0.818134
      6.79327     0.328676       0.8039
      6.73365     0.317957     0.789389
      6.67403     0.307421     0.774632
      6.61442     0.297073     0.759656
       6.5548     0.286915     0.744492
      6.49519      0.27695     0.729166
      6.43557      0.26718     0.713705
      6.37595     0.257607     0.698134
      6.31634     0.248233     0.682477
      6.25672      0.23906     0.666758
      6.19711     0.230089     0.650999
      6.13749     0.221321     0.635221
      6.07788     0.212757     0.619444
      6.01826     0.204398     0.603689
      5.95864     0.196244     0.587972
      5.89903     0.188295     0.572311
      5.83941     0.180552     0.556723
       5.7798     0.173014     0.541223
      5.72018      0.16568     0.525827
      5.66057      0.15855     0.510548
      5.60095     0.151623       0.4954
      5.54133     0.144897     0.480394
      5.48172     0.138373     0.465544
       5.4221     0.132047     0.450861
      5.36249     0.125919     0.436354
      5.30287     0.119987     0.422034
      5.24326     0.114248      0.40791
      5.18364     0.108701     0.393992
      5.12402     0.103342     0.380286
      5.06441    0.0981707     0.366802
      5.00479    0.0931831     0.353546
      4.94518    0.0883767     0.340525
      4.88556    0.0837486     0.327745
      4.82594    0.0792959     0.315211
      4.76633    0.0750154     0.302929
      4.70671    0.0709038     0.290904
       4.6471    0.0669579     0.279139
